# Radius I 667.99 I 706.75 I 728.34 D 667.99 D 706.75 D 728.34
81
0.520657 0.047543 1.095557 0.482304 0.002377 0.054778 0.024115 
0.519428 0.083165 1.281333 0.511114 0.004158 0.064067 0.025556 
0.518199 0.113808 1.440736 0.525126 0.005690 0.072037 0.026256 
0.516971 0.142149 1.469589 0.552826 0.007107 0.073479 0.027641 
0.515742 0.194601 1.571936 0.565685 0.009730 0.078597 0.028284 
0.514514 0.264718 1.603473 0.584210 0.013236 0.080174 0.029210 
0.513285 0.307658 1.673878 0.598960 0.015383 0.083694 0.029948 
0.512056 0.352049 1.713724 0.618729 0.017602 0.085686 0.030936 
0.510828 0.399819 1.630876 0.613660 0.019991 0.081544 0.030683 
0.509599 0.412783 1.558591 0.595025 0.020639 0.077930 0.029751 
0.508371 0.461385 1.662451 0.616169 0.023069 0.083123 0.030808 
0.507142 0.524062 1.711876 0.648268 0.026203 0.085594 0.032413 
0.505913 0.576749 1.779507 0.677184 0.028837 0.088975 0.033859 
0.504685 0.629561 1.822942 0.716948 0.031478 0.091147 0.035847 
0.503456 0.695913 1.856480 0.705966 0.034796 0.092824 0.035298 
0.502228 0.753046 1.908140 0.727916 0.037652 0.095407 0.036396 
0.500999 0.830745 1.912004 0.738725 0.041537 0.095600 0.036936 
0.499770 0.902859 1.957304 0.767339 0.045143 0.097865 0.038367 
0.498542 0.971126 2.062133 0.796964 0.048556 0.103107 0.039848 
0.497313 1.092488 2.170446 0.842709 0.054624 0.108522 0.042135 
0.496085 1.250072 2.306908 0.889207 0.062504 0.115345 0.044460 
0.494856 1.462564 2.409723 0.940830 0.073128 0.120486 0.047042 
0.493627 1.664790 2.610880 1.033644 0.083240 0.130544 0.051682 
0.492399 1.901551 2.781736 1.148910 0.095078 0.139087 0.057445 
0.491170 2.175033 2.931203 1.241091 0.108752 0.146560 0.062055 
0.489942 2.468700 3.100238 1.326207 0.123435 0.155012 0.066310 
0.488713 2.758224 3.324639 1.406391 0.137911 0.166232 0.070320 
0.487484 3.156732 3.491760 1.533477 0.157837 0.174588 0.076674 
0.486256 3.610848 3.803080 1.638693 0.180542 0.190154 0.081935 
0.485027 4.119551 3.973213 1.734911 0.205978 0.198661 0.086746 
0.483799 4.481425 4.170479 1.840524 0.224071 0.208524 0.092026 
0.482570 5.001383 4.269696 1.880664 0.250069 0.213485 0.094033 
0.481341 5.496424 4.434761 1.978062 0.274821 0.221738 0.098903 
0.480113 5.958107 4.568749 2.034365 0.297905 0.228437 0.101718 
0.478884 6.505292 4.708370 2.103468 0.325265 0.235418 0.105173 
0.477656 6.779612 4.658839 2.126124 0.338981 0.232942 0.106306 
0.476427 7.033592 4.580814 2.157946 0.351680 0.229041 0.107897 
0.475198 7.291070 4.449787 2.159258 0.364553 0.222489 0.107963 
0.473970 7.470826 4.299428 2.128102 0.373541 0.214971 0.106405 
0.472741 7.669540 4.198357 2.083537 0.383477 0.209918 0.104177 
0.471513 7.523987 3.982881 2.020428 0.376199 0.199144 0.101021 
0.470284 7.294444 3.705930 1.918097 0.364722 0.185296 0.095905 
0.469055 7.054493 3.474720 1.820878 0.352725 0.173736 0.091044 
0.467827 6.798584 3.189141 1.689826 0.339929 0.159457 0.084491 
0.466598 6.626679 2.853073 1.597607 0.331334 0.142654 0.079880 
0.465370 6.302617 2.653200 1.486739 0.315131 0.132660 0.074337 
0.464141 5.904227 2.400981 1.368800 0.295211 0.120049 0.068440 
0.462913 5.752361 2.197244 1.247266 0.287618 0.109862 0.062363 
0.461684 5.482079 1.962845 1.134762 0.274104 0.098142 0.056738 
0.460455 5.025689 1.769019 1.014741 0.251284 0.088451 0.050737 
0.459227 4.510305 1.631840 0.907068 0.225515 0.081592 0.045353 
0.457998 4.063590 1.500900 0.821039 0.203179 0.075045 0.041052 
0.456770 3.758431 1.351967 0.748647 0.187922 0.067598 0.037432 
0.455541 3.390763 1.250696 0.648912 0.169538 0.062535 0.032446 
0.454312 3.005341 1.124239 0.553038 0.150267 0.056212 0.027652 
0.453084 2.624284 1.021164 0.487773 0.131214 0.051058 0.024389 
0.451855 2.358710 0.906766 0.426953 0.117935 0.045338 0.021348 
0.450627 2.002190 0.817841 0.356005 0.100110 0.040892 0.017800 
0.449398 1.685279 0.720716 0.280341 0.084264 0.036036 0.014017 
0.448169 1.447515 0.644852 0.229501 0.072376 0.032243 0.011475 
0.446941 1.254192 0.571912 0.184924 0.062710 0.028596 0.009246 
0.445712 1.100648 0.478543 0.148817 0.055032 0.023927 0.007441 
0.444484 0.965557 0.401626 0.118498 0.048278 0.020081 0.005925 
0.443255 0.894450 0.342127 0.100556 0.044723 0.017106 0.005028 
0.442026 0.806735 0.320693 0.086410 0.040337 0.016035 0.004320 
0.440798 0.713982 0.267710 0.075765 0.035699 0.013386 0.003788 
0.439569 0.613153 0.283071 0.055033 0.030658 0.014154 0.002752 
0.438341 0.558482 0.228592 0.048988 0.027924 0.011430 0.002449 
0.437112 0.490417 0.185454 0.033745 0.024521 0.009273 0.001687 
0.435883 0.436048 0.162189 0.016333 0.021802 0.008109 0.000817 
0.434655 0.343160 0.116258 0.013262 0.017158 0.005813 0.000663 
0.433426 0.290169 0.110214 0.016323 0.014508 0.005511 0.000816 
0.432198 0.354302 0.093608 0.020493 0.017715 0.004680 0.001025 
0.430969 0.330412 0.052754 0.013047 0.016521 0.002638 0.000652 
0.429740 0.278950 0.038836 0.005836 0.013947 0.001942 0.000292 
0.428512 0.254728 0.004730 0.000316 0.012736 0.000236 0.000016 
0.427283 0.240440 0.019005 0.013614 0.012022 0.000950 0.000681 
0.426055 0.239067 0.039657 0.026327 0.011953 0.001983 0.001316 
0.424826 0.220341 0.036139 0.024454 0.011017 0.001807 0.001223 
0.423597 0.177402 0.037385 0.011712 0.008870 0.001869 0.000586 
0.422369 0.152788 0.022522 0.008946 0.007639 0.001126 0.000447 
