# Radius I 667.99 I 706.75 I 728.34 D 667.99 D 706.75 D 728.34
99
0.520657 0.004759 0.080399 0.052842 0.000238 0.004020 0.002642 
0.519428 0.015744 0.094614 0.058256 0.000787 0.004731 0.002913 
0.518199 0.019747 0.122056 0.061479 0.000987 0.006103 0.003074 
0.516971 0.027485 0.111845 0.069422 0.001374 0.005592 0.003471 
0.515742 0.037842 0.129150 0.075875 0.001892 0.006458 0.003794 
0.514514 0.055206 0.139852 0.082146 0.002760 0.006993 0.004107 
0.513285 0.058074 0.166215 0.085729 0.002904 0.008311 0.004286 
0.512056 0.070088 0.170627 0.091303 0.003504 0.008531 0.004565 
0.510828 0.079504 0.163865 0.095056 0.003975 0.008193 0.004753 
0.509599 0.077531 0.156640 0.094883 0.003877 0.007832 0.004744 
0.508371 0.086526 0.197553 0.104390 0.004326 0.009878 0.005219 
0.507142 0.105768 0.221873 0.116880 0.005288 0.011094 0.005844 
0.505913 0.117520 0.251644 0.130175 0.005876 0.012582 0.006509 
0.504685 0.131624 0.265711 0.149597 0.006581 0.013286 0.007480 
0.503456 0.148113 0.287886 0.156495 0.007406 0.014394 0.007825 
0.502228 0.162252 0.303670 0.168035 0.008113 0.015184 0.008402 
0.500999 0.177024 0.334218 0.177645 0.008851 0.016711 0.008882 
0.499770 0.190027 0.368434 0.192619 0.009501 0.018422 0.009631 
0.498542 0.195756 0.423605 0.208177 0.009788 0.021180 0.010409 
0.497313 0.222426 0.473159 0.225961 0.011121 0.023658 0.011298 
0.496085 0.254195 0.552558 0.249293 0.012710 0.027628 0.012465 
0.494856 0.294438 0.611344 0.274405 0.014722 0.030567 0.013720 
0.493627 0.323644 0.711439 0.310391 0.016182 0.035572 0.015520 
0.492399 0.373053 0.788086 0.353919 0.018653 0.039404 0.017696 
0.491170 0.428951 0.888750 0.397454 0.021448 0.044437 0.019873 
0.489942 0.488547 0.994212 0.444127 0.024427 0.049711 0.022206 
0.488713 0.550168 1.143846 0.494393 0.027508 0.057192 0.024720 
0.487484 0.649389 1.277431 0.568487 0.032469 0.063872 0.028424 
0.486256 0.765125 1.486419 0.644792 0.038256 0.074321 0.032240 
0.485027 0.900416 1.661093 0.726602 0.045021 0.083055 0.036330 
0.483799 0.998415 1.884117 0.815136 0.049921 0.094206 0.040757 
0.482570 1.110351 2.051816 0.864875 0.055518 0.102591 0.043244 
0.481341 1.216349 2.299585 0.943076 0.060817 0.114979 0.047154 
0.480113 1.313983 2.550003 1.003776 0.065699 0.127500 0.050189 
0.478884 1.432910 2.859022 1.076627 0.071646 0.142951 0.053831 
0.477656 1.514762 3.072045 1.139690 0.075738 0.153602 0.056984 
0.476427 1.627026 3.310198 1.224376 0.081351 0.165510 0.061219 
0.475198 1.784776 3.506902 1.305401 0.089239 0.175345 0.065270 
0.473970 1.956043 3.721307 1.383190 0.097802 0.186065 0.069160 
0.472741 2.207693 4.012026 1.469899 0.110385 0.200601 0.073495 
0.471513 2.417621 4.241702 1.560947 0.120881 0.212085 0.078047 
0.470284 2.659770 4.422115 1.647313 0.132988 0.221106 0.082366 
0.469055 2.933363 4.645611 1.745426 0.146668 0.232281 0.087271 
0.467827 3.248669 4.843773 1.818818 0.162433 0.242189 0.090941 
0.466598 3.624882 4.935993 1.925242 0.181244 0.246800 0.096262 
0.465370 3.940047 5.177087 2.003916 0.197002 0.258854 0.100196 
0.464141 4.245827 5.289865 2.073457 0.212291 0.264493 0.103673 
0.462913 4.846690 5.458239 2.133393 0.242335 0.272912 0.106670 
0.461684 5.434523 5.494184 2.194210 0.271726 0.274709 0.109710 
0.460455 5.807239 5.539317 2.220521 0.290362 0.276966 0.111026 
0.459227 6.052281 5.631983 2.244490 0.302614 0.281599 0.112224 
0.457998 6.305389 5.700121 2.279681 0.315269 0.285006 0.113984 
0.456770 6.735382 5.577710 2.321760 0.336769 0.278886 0.116088 
0.455541 6.997641 5.521307 2.296620 0.349882 0.276065 0.114831 
0.454312 7.142051 5.345786 2.245217 0.357103 0.267289 0.112261 
0.453084 7.169331 5.238207 2.216940 0.358467 0.261910 0.110847 
0.451855 7.279190 4.990137 2.162354 0.363959 0.249507 0.108118 
0.450627 7.006605 4.743664 2.071544 0.350330 0.237183 0.103577 
0.449398 6.721912 4.443796 1.962965 0.336096 0.222190 0.098148 
0.448169 6.522624 4.194000 1.879248 0.326131 0.209700 0.093962 
0.446941 6.299842 3.892847 1.792108 0.314992 0.194642 0.089605 
0.445712 6.010305 3.590460 1.681387 0.300515 0.179523 0.084069 
0.444484 5.761512 3.286429 1.567035 0.288076 0.164321 0.078352 
0.443255 5.612959 3.056213 1.464168 0.280648 0.152811 0.073208 
0.442026 5.345638 2.854974 1.360829 0.267282 0.142749 0.068041 
0.440798 4.986698 2.588206 1.269237 0.249335 0.129410 0.063462 
0.439569 4.583379 2.425463 1.153703 0.229169 0.121273 0.057685 
0.438341 4.308232 2.158176 1.059433 0.215412 0.107909 0.052972 
0.437112 3.962776 1.920417 0.952800 0.198139 0.096021 0.047640 
0.435883 3.627667 1.739789 0.854048 0.181383 0.086989 0.042702 
0.434655 3.199891 1.504332 0.743633 0.159995 0.075217 0.037182 
0.433426 2.863414 1.371222 0.670693 0.143171 0.068561 0.033535 
0.432198 2.833884 1.234119 0.596618 0.141694 0.061706 0.029831 
0.430969 2.608283 1.078245 0.539256 0.130414 0.053912 0.026963 
0.429740 2.303303 0.964784 0.484234 0.115165 0.048239 0.024212 
0.428512 2.036467 0.843381 0.431599 0.101823 0.042169 0.021580 
0.427283 1.778469 0.764235 0.393848 0.088923 0.038212 0.019692 
0.426055 1.604232 0.701013 0.361216 0.080212 0.035051 0.018061 
0.424826 1.465398 0.622604 0.324360 0.073270 0.031130 0.016218 
0.423597 1.302944 0.568053 0.284146 0.065147 0.028403 0.014207 
0.422369 1.172235 0.507019 0.247407 0.058612 0.025351 0.012370 
0.421140 1.019364 0.467283 0.226454 0.050968 0.023364 0.011323 
0.419912 0.946267 0.389591 0.200485 0.047313 0.019480 0.010024 
0.418683 0.835292 0.359735 0.173644 0.041765 0.017987 0.008682 
0.417454 0.748930 0.327497 0.156604 0.037446 0.016375 0.007830 
0.416226 0.652801 0.291590 0.144999 0.032640 0.014580 0.007250 
0.414997 0.579217 0.275965 0.119560 0.028961 0.013798 0.005978 
0.413769 0.514985 0.221848 0.096731 0.025749 0.011092 0.004837 
0.412540 0.447318 0.197471 0.085215 0.022366 0.009874 0.004261 
0.411311 0.396119 0.156365 0.081581 0.019806 0.007818 0.004079 
0.410083 0.343480 0.126099 0.072102 0.017174 0.006305 0.003605 
0.408854 0.258240 0.086753 0.061934 0.012912 0.004338 0.003097 
0.407626 0.200348 0.061018 0.053329 0.010017 0.003051 0.002666 
0.406397 0.182610 0.008353 0.045970 0.009131 0.000418 0.002298 
0.405168 0.142442 0.023504 0.035019 0.007122 0.001175 0.001751 
0.403940 0.110602 0.007719 0.030116 0.005530 0.000386 0.001506 
0.402711 0.080518 0.031223 0.023582 0.004026 0.001561 0.001179 
0.401483 0.058612 0.158547 0.025744 0.002931 0.007927 0.001287 
0.400254 0.020056 0.623559 0.015113 0.001003 0.031178 0.000756 
